# Lc(Cup_Length): 24.0
# Rc(Cup_Radius): 8.75
# Rt(Throat_Radius): 2.0
# A(Slope Angle): -5.0
# Beta(inflection point param): 0.5
# (a,b,c)(atan function params): 2.8962627747517673,-0.19411746546522038,5.375
x,y
0.0,8.7499999999764
0.05,8.745610125367401
0.1,8.741189162730302
0.15,8.73673680147714
0.2,8.732252727186177
0.25,8.727736621548772
0.3,8.723188162315505
0.35,8.718607023241569
0.4,8.71399287403139
0.45,8.709345380282532
0.5,8.704664203428793
0.55,8.699949000682572
0.6,8.69519942497643
0.65,8.690415124903886
0.7,8.685595744659423
0.75,8.680740923977687
0.8,8.675850298071907
0.85,8.67092349757149
0.9,8.665960148458822
0.95,8.660959872005241
1.0,8.655922284706193
1.05,8.650846998215577
1.1,8.645733619279246
1.15,8.640581749667682
1.2,8.635390986107845
1.25,8.630160920214175
1.3,8.624891138418764
1.35,8.619581221900685
1.4,8.614230746514474
1.45,8.608839282717792
1.5,8.603406395498212
1.55,8.597931644299203
1.6,8.592414582945255
1.65,8.586854759566162
1.7,8.5812517165205
1.75,8.575604990318247
1.8,8.569914111542602
1.85,8.564178604770962
1.9,8.558397988495123
1.95,8.552571775040644
2.0,8.546699470485432
2.05,8.540780574577553
2.1,8.534814580652249
2.15,8.528800975548219
2.2,8.522739239523126
2.25,8.516628846168413
2.3,8.510469262323364
2.35,8.504259947988507
2.4,8.498000356238318
2.45,8.491689933133284
2.5,8.485328117631342
2.55,8.47891434149871
2.6,8.47244802922014
2.65,8.465928597908638
2.7,8.459355457214675
2.75,8.452728009234905
2.8,8.446045648420453
2.85,8.43930776148482
2.9,8.432513727311395
2.95,8.4256629168607
3.0,8.418754693077336
3.05,8.41178841079674
3.1,8.404763416651782
3.15,8.397679048979253
3.2,8.390534637726347
3.25,8.383329504357139
3.3,8.376062961759194
3.35,8.368734314150334
3.4,8.361342856985663
3.45,8.353887876864933
3.5,8.34636865144033
3.55,8.33878444932478
3.6,8.331134530000867
3.65,8.32341814373047
3.7,8.315634531465228
3.75,8.307782924757955
3.8,8.299862545675092
3.85,8.29187260671038
3.9,8.283812310699831
3.95,8.275680850738187
4.0,8.267477410096966
4.05,8.25920116214429
4.1,8.250851270266644
4.15,8.242426887792726
4.2,8.233927157919599
4.25,8.225351213641282
4.3,8.216698177680039
4.35,8.207967162420518
4.4,8.199157269847003
4.45,8.190267591483959
4.5,8.181297208340155
4.55,8.17224519085657
4.6,8.163110598858378
4.65,8.153892481511257
4.7,8.144589877282316
4.75,8.135201813905937
4.8,8.125727308354842
4.85,8.116165366816684
4.9,8.106514984676549
4.95,8.096775146505657
5.0,8.086944826056667
5.05,8.077022986265966
5.1,8.067008579263305
5.15,8.056900546389226
5.2,8.0466978182207
5.25,8.036399314605397
5.3,8.026003944705092
5.35,8.015510607048636
5.4,8.004918189595035
5.45,7.994225569807126
5.5,7.983431614736384
5.55,7.972535181119429
5.6,7.961535115486798
5.65,7.950430254284569
5.7,7.9392194240094645
5.75,7.927901441358051
5.8,7.916475113390714
5.85,7.904939237711057
5.9,7.89329260266144
5.95,7.881533987535375
6.0,7.869662162807511
6.05,7.85767589038197
6.1,7.845573923859829
6.15,7.8333550088265405
6.2,7.821017883160123
6.25,7.808561277360969
6.3,7.7959839149041255
6.35,7.783284512614964
6.4,7.770461781069108
6.45,7.757514425017588
6.5,7.744441143838121
6.55,7.731240632013531
6.6,7.717911579638237
6.65,7.704452672953849
6.7,7.690862594914844
6.75,7.677140025785371
6.8,7.663283643768199
6.85,7.649292125666859
6.9,7.635164147582033
6.95,7.620898385643227
7.0,7.606493516776804
7.05,7.591948219511419
7.1,7.577261174821924
7.15,7.562431067012765
7.2,7.547456584641942
7.25,7.532336421486523
7.3,7.517069277550743
7.35,7.501653860117653
7.4,7.486088884845301
7.45,7.470373076908339
7.5,7.45450517218598
7.55,7.4384839184971305
7.6,7.4223080768835
7.65,7.405976422941448
7.7,7.389487748203237
7.75,7.372840861568305
7.8,7.356034590785116
7.85,7.339067783984028
7.9,7.321939311261543
7.95,7.304648066316222
8.0,7.287192968136402
8.05,7.269572962739762
8.1,7.2517870249646545
8.15,7.2338341603129654
8.2,7.215713406844146
8.25,7.197423837119871
8.3,7.178964560198645
8.35,7.160334723679466
8.4,7.141533515793495
8.45,7.122560167542469
8.5,7.103413954882383
8.55,7.084094200950753
8.6,7.064600278335535
8.65,7.0449316113835305
8.7,7.025087678545889
8.75,7.0050680147579865
8.8,6.984872213850784
8.85,6.964499930990404
8.9,6.943950885142425
8.95,6.923224861557102
9.0,6.9023217142713795
9.05,6.881241368623305
9.1,6.859983823774124
9.15,6.838549155232999
9.2,6.81693751737903
9.25,6.795149145974892
9.3,6.7731843606661375
9.35,6.751043567459849
9.4,6.728727261176078
9.45,6.706236027865177
9.5,6.68357054718385
9.55,6.660731594722479
9.6,6.6377200442760325
9.65,6.61453687005057
9.7,6.591183148797226
9.75,6.567660061865241
9.8,6.543968897165536
9.85,6.520111051036093
9.9,6.4960880300003385
9.95,6.471901452409639
10.0,6.447553049960909
10.05,6.42304466908041
10.1,6.398378272164768
10.15,6.373555938670356
10.2,6.348579866042294
10.25,6.32345237047446
10.3,6.298175887492174
10.35,6.272752972349414
10.4,6.2471863002328005
10.45,6.22147866626492
10.5,6.195632985299988
10.55,6.169652291505357
10.6,6.143539737722853
10.65,6.117298594604562
10.7,6.090932249518306
10.75,6.064444205218709
10.8,6.03783807828054
10.85,6.01111759729175
10.9,5.984286600804473
10.95,5.957349035043127
11.0,5.930308951369626
11.05,5.903170503506655
11.1,5.875937944520928
11.15,5.84861562356928
11.2,5.821207982411514
11.25,5.793719551694797
11.3,5.766154947015542
11.35,5.73851886476559
11.4,5.710816077770545
11.45,5.683051430729094
11.5,5.655229835463028
11.55,5.627356265988643
11.6,5.599435753421052
11.65,5.571473380723731
11.7,5.54347427731646
11.75,5.515443613555467
11.8,5.487386595100277
11.85,5.45930845718233
11.9,5.431214458790935
11.95,5.403109876792591
12.0,5.375
12.05,5.346890123207409
12.1,5.318785541209065
12.15,5.29069154281767
12.2,5.262613404899723
12.25,5.234556386444533
12.3,5.20652572268354
12.35,5.178526619276269
12.4,5.150564246578948
12.45,5.122643734011357
12.5,5.094770164536972
12.55,5.066948569270906
12.6,5.039183922229455
12.65,5.01148113523441
12.7,4.983845052984458
12.75,4.956280448305203
12.8,4.928792017588486
12.85,4.90138437643072
12.9,4.874062055479072
12.95,4.846829496493345
13.0,4.819691048630374
13.05,4.792650964956873
13.1,4.765713399195527
13.15,4.73888240270825
13.2,4.71216192171946
13.25,4.685555794781291
13.3,4.659067750481694
13.35,4.632701405395438
13.4,4.606460262277147
13.45,4.580347708494643
13.5,4.554367014700012
13.55,4.52852133373508
13.6,4.5028136997671995
13.65,4.477247027650586
13.7,4.451824112507826
13.75,4.42654762952554
13.8,4.401420133957706
13.85,4.376444061329644
13.9,4.351621727835232
13.95,4.32695533091959
14.0,4.302446950039091
14.05,4.278098547590361
14.1,4.2539119699996615
14.15,4.229888948963907
14.2,4.206031102834464
14.25,4.182339938134759
14.3,4.158816851202774
14.35,4.13546312994943
14.4,4.1122799557239675
14.45,4.089268405277521
14.5,4.06642945281615
14.55,4.043763972134823
14.6,4.021272738823922
14.65,3.998956432540151
14.7,3.9768156393338625
14.75,3.954850854025108
14.8,3.9330624826209704
14.85,3.9114508447670007
14.9,3.8900161762258754
14.95,3.8687586313766946
15.0,3.8476782857286205
15.05,3.826775138442897
15.1,3.806049114857575
15.15,3.785500069009596
15.2,3.7651277861492156
15.25,3.7449319852420135
15.3,3.724912321454111
15.35,3.705068388616469
15.4,3.6853997216644654
15.45,3.6659057990492467
15.5,3.6465860451176173
15.55,3.627439832457531
15.6,3.608466484206505
15.65,3.5896652763205337
15.7,3.571035439801355
15.75,3.552576162880129
15.8,3.534286593155854
15.85,3.5161658396870346
15.9,3.4982129750353455
15.95,3.4804270372602377
16.0,3.4628070318635977
16.05,3.4453519336837775
16.1,3.428060688738457
16.15,3.410932216015973
16.2,3.3939654092148843
16.25,3.3771591384316952
16.3,3.3605122517967634
16.35,3.344023577058551
16.4,3.3276919231165003
16.45,3.31151608150287
16.5,3.2954948278140193
16.55,3.279626923091661
16.6,3.2639111151546993
16.65,3.2483461398823477
16.7,3.232930722449258
16.75,3.2176635785134766
16.8,3.202543415358057
16.85,3.1875689329872334
16.9,3.172738825178076
16.95,3.1580517804885804
17.0,3.143506483223196
17.05,3.1291016143567725
17.1,3.1148358524179667
17.15,3.1007078743331413
17.2,3.086716356231802
17.25,3.072859974214629
17.3,3.059137405085156
17.35,3.045547327046151
17.4,3.0320884203617635
17.45,3.0187593679864695
17.5,3.005558856161879
17.55,2.9924855749824126
17.6,2.9795382189308914
17.65,2.9667154873850374
17.7,2.954016085095875
17.75,2.9414387226390315
17.8,2.9289821168398764
17.85,2.9166449911734595
17.9,2.904426076140172
17.95,2.8923241096180297
18.0,2.880337837192488
18.05,2.8684660124646237
18.1,2.85670739733856
18.15,2.8450607622889437
18.2,2.833524886609286
18.25,2.8220985586419487
18.3,2.8107805759905355
18.35,2.79956974571543
18.4,2.788464884513202
18.45,2.777464818880571
18.5,2.7665683852636165
18.55,2.7557744301928735
18.6,2.745081810404964
18.65,2.7344893929513643
18.7,2.723996055294908
18.75,2.713600685394602
18.8,2.7033021817792995
18.85,2.6930994536107726
18.9,2.6829914207366956
18.95,2.6729770137340334
19.0,2.663055173943332
19.05,2.653224853494343
19.1,2.64348501532345
19.15,2.633834633183316
19.2,2.6242726916451584
19.25,2.6147981860940623
19.3,2.605410122717684
19.35,2.596107518488743
19.4,2.5868894011416224
19.45,2.57775480914343
19.5,2.568702791659845
19.55,2.5597324085160404
19.6,2.5508427301529966
19.65,2.542032837579482
19.7,2.533301822319962
19.75,2.524648786358718
19.8,2.516072842080401
19.85,2.507573112207273
19.9,2.4991487297333568
19.95,2.4907988378557095
20.0,2.4825225899030334
20.05,2.474319149261812
20.1,2.466187689300168
20.15,2.4581273932896215
20.2,2.4501374543249077
20.25,2.4422170752420445
20.3,2.4343654685347706
20.35,2.426581856269531
20.4,2.4188654699991345
20.45,2.41121555067522
20.5,2.4036313485596703
20.55,2.3961121231350675
20.6,2.388657143014337
20.65,2.3812656858496664
20.7,2.3739370382408054
20.75,2.366670495642861
20.8,2.359465362273653
20.85,2.3523209510207463
20.9,2.345236583348219
20.95,2.3382115892032593
21.0,2.3312453069226633
21.05,2.3243370831392993
21.1,2.3174862726886047
21.15,2.310692238515181
21.2,2.3039543515795464
21.25,2.2972719907650956
21.3,2.290644542785324
21.35,2.2840714020913615
21.4,2.2775519707798617
21.45,2.2710856585012906
21.5,2.2646718823686576
21.55,2.258310066866716
21.6,2.2519996437616823
21.65,2.2457400520114934
21.7,2.2395307376766365
21.75,2.2333711538315884
21.8,2.227260760476874
21.85,2.221199024451782
21.9,2.2151854193477503
21.95,2.209219425422447
22.0,2.203300529514568
22.05,2.197428224959357
22.1,2.1916020115048767
22.15,2.1858213952290377
22.2,2.180085888457399
22.25,2.1743950096817524
22.3,2.1687482834794998
22.35,2.1631452404338383
22.4,2.157585417054746
22.45,2.1520683557007962
22.5,2.1465936045017884
22.55,2.141160717282209
22.6,2.1357692534855253
22.65,2.130418778099316
22.7,2.125108861581236
22.75,2.1198390797858253
22.8,2.114609013892155
22.85,2.109418250332318
22.9,2.104266380720754
22.95,2.099153001784422
23.0,2.0940777152938064
23.05,2.0890401279947586
23.1,2.084039851541177
23.15,2.079076502428509
23.2,2.0741497019280937
23.25,2.069259076022313
23.3,2.0644042553405777
23.35,2.059584875096114
23.4,2.0548005750235707
23.45,2.0500509993174285
23.5,2.0453357965712073
23.55,2.0406546197174684
23.6,2.036007125968609
23.65,2.0313929767584313
23.7,2.0268118376844937
23.75,2.0222633784512283
23.8,2.0177472728138235
23.85,2.01326319852286
23.9,2.008810837269697
23.95,2.0043898746325994
24.0,2.000000000023601
